Wavelength(A),Weight
3.400000000000000000e+03,1.642013088835742263e+00
3.400385038503850410e+03,1.642077048552873508e+00
3.400770077007700820e+03,1.642141008270004532e+00
3.401155115511551230e+03,1.642204986895398733e+00
3.401540154015401640e+03,1.642268993547934430e+00
3.401925192519252050e+03,1.642333000200469906e+00
3.402310231023102460e+03,1.642401190347760442e+00
3.402695269526952870e+03,1.642470389281020182e+00
3.403080308030803280e+03,1.642540266067238797e+00
3.403465346534653690e+03,1.642612714980438815e+00
3.403850385038503646e+03,1.642685163893638833e+00
3.404235423542354056e+03,1.642757645349266271e+00
3.404620462046204466e+03,1.642830147486062486e+00
3.405005500550054876e+03,1.642902756829146327e+00
3.405390539053905286e+03,1.642982763406071633e+00
3.405775577557755696e+03,1.643062769982996718e+00
3.406160616061606106e+03,1.643143271255985916e+00
3.406545654565456516e+03,1.643224463748133024e+00
3.406930693069306926e+03,1.643305656240280133e+00
3.407315731573157336e+03,1.643387705356810224e+00
3.407700770077007746e+03,1.643469942512838955e+00
3.408085808580858156e+03,1.643553794256861211e+00
3.408470847084708566e+03,1.643643276359015415e+00
3.408855885588558976e+03,1.643732758461169396e+00
3.409240924092409387e+03,1.643822281771456728e+00
3.409625962596259797e+03,1.643911829731358187e+00
3.410011001100110207e+03,1.644001462157727689e+00
3.410396039603960617e+03,1.644093966444005961e+00
3.410781078107810572e+03,1.644186470730284233e+00
3.411166116611660982e+03,1.644281105303935675e+00
3.411551155115511392e+03,1.644378547342403518e+00
3.411936193619361802e+03,1.644475989380871139e+00
3.412321232123212212e+03,1.644573491317236735e+00
3.412706270627062622e+03,1.644671005151129739e+00
3.413091309130913032e+03,1.644769687711864714e+00
3.413476347634763442e+03,1.644872129911958858e+00
3.413861386138613852e+03,1.644974572112052780e+00
3.414246424642464262e+03,1.645078932122331583e+00
3.414631463146314672e+03,1.645184370900839577e+00
3.415016501650165083e+03,1.645289813012492885e+00
3.415401540154015493e+03,1.645395329564390163e+00
3.415786578657865903e+03,1.645500846116287663e+00
3.416171617161716313e+03,1.645609300893373206e+00
3.416556655665566723e+03,1.645721409617166842e+00
3.416941694169417133e+03,1.645833518340960477e+00
3.417326732673267543e+03,1.645946478466683738e+00
3.417711771177117498e+03,1.646059590526084637e+00
3.418096809680967908e+03,1.646172939770184973e+00
3.418481848184818318e+03,1.646286995177822510e+00
3.418866886688668728e+03,1.646401050585460046e+00
3.419251925192519138e+03,1.646518989071050321e+00
3.419636963696369548e+03,1.646638979313986839e+00
3.420022002200219958e+03,1.646758974623797833e+00
3.420407040704070369e+03,1.646879053537036564e+00
3.420792079207920779e+03,1.646999132450275294e+00
3.421177117711771189e+03,1.647120238438487982e+00
3.421562156215621599e+03,1.647242550123409366e+00
3.421947194719472009e+03,1.647364861808330527e+00
3.422332233223322419e+03,1.647490269399348506e+00
3.422717271727172829e+03,1.647616169054911373e+00
3.423102310231023239e+03,1.647742093459230395e+00
3.423487348734873649e+03,1.647868086255272591e+00
3.423872387238724059e+03,1.647994079051314564e+00
3.424257425742574469e+03,1.648121742527109745e+00
3.424642464246424424e+03,1.648250234203123998e+00
3.425027502750274834e+03,1.648378832835241337e+00
3.425412541254125244e+03,1.648508821896694121e+00
3.425797579757975655e+03,1.648638810958146905e+00
3.426182618261826065e+03,1.648768845680343542e+00
3.426567656765676475e+03,1.648898931014449065e+00
3.426952695269526885e+03,1.649029016348554366e+00
3.427337733773377295e+03,1.649160978927019405e+00
3.427722772277227705e+03,1.649293204441990790e+00
3.428107810781078115e+03,1.649425532673360006e+00
3.428492849284928525e+03,1.649558125032609457e+00
3.428877887788778935e+03,1.649690717391858907e+00
3.429262926292629345e+03,1.649823490772609702e+00
3.429647964796479755e+03,1.649956348226107705e+00
3.430033003300330165e+03,1.650089305369786485e+00
3.430418041804180575e+03,1.650223325875391556e+00
3.430803080308030985e+03,1.650357346380996626e+00
3.431188118811881395e+03,1.650491415471389445e+00
3.431573157315731351e+03,1.650625535419542711e+00
3.431958195819581761e+03,1.650759655367696199e+00
3.432343234323432171e+03,1.650894096316714021e+00
3.432728272827282581e+03,1.651028576361991185e+00
3.433113311331132991e+03,1.651163207058884419e+00
3.433498349834983401e+03,1.651298199027129154e+00
3.433883388338833811e+03,1.651433190995373890e+00
3.434268426842684221e+03,1.651568252869600961e+00
3.434653465346534631e+03,1.651703345112820021e+00
3.435038503850385041e+03,1.651838505790102385e+00
3.435423542354235451e+03,1.651974282373950720e+00
3.435808580858085861e+03,1.652110058957799055e+00
3.436193619361936271e+03,1.652246052136555177e+00
3.436578657865786681e+03,1.652382259448912816e+00
3.436963696369637091e+03,1.652518466761270677e+00
3.437348734873487501e+03,1.652654765813989846e+00
3.437733773377337911e+03,1.652791074416967376e+00
3.438118811881188321e+03,1.652927499055276250e+00
3.438503850385038277e+03,1.653064183698679024e+00
3.438888888888888687e+03,1.653200868342081797e+00
3.439273927392739097e+03,1.653337649296277245e+00
3.439658965896589507e+03,1.653474469316296158e+00
3.440044004400439917e+03,1.653611294319664138e+00
3.440429042904290327e+03,1.653748157943988106e+00
3.440814081408140737e+03,1.653885021568312297e+00
3.441199119911991147e+03,1.654021756666081089e+00
3.441584158415841557e+03,1.654158371758392088e+00
3.441969196919691967e+03,1.654294986850703308e+00
3.442354235423542377e+03,1.654431695583459927e+00
3.442739273927392787e+03,1.654568412458863991e+00
3.443124312431243197e+03,1.654705001140517329e+00
3.443509350935093607e+03,1.654841320955631412e+00
3.443894389438944017e+03,1.654977640770745495e+00
3.444279427942794428e+03,1.655113478440308539e+00
3.444664466446644838e+03,1.655249133881631529e+00
3.445049504950495248e+03,1.655384802331965499e+00
3.445434543454345658e+03,1.655520558954482802e+00
3.445819581958195613e+03,1.655656315577000104e+00
3.446204620462046023e+03,1.655791358358624121e+00
3.446589658965896433e+03,1.655925771732148721e+00
3.446974697469746843e+03,1.656060185105673099e+00
3.447359735973597253e+03,1.656193953142854669e+00
3.447744774477447663e+03,1.656327675789406317e+00
3.448129812981298073e+03,1.656461432100109654e+00
3.448514851485148483e+03,1.656595254597958089e+00
3.448899889988998893e+03,1.656729077095806746e+00
3.449284928492849303e+03,1.656860757541563034e+00
3.449669966996699713e+03,1.656991685374422207e+00
3.450055005500550124e+03,1.657122578546397884e+00
3.450440044004400534e+03,1.657253263753072359e+00
3.450825082508250944e+03,1.657383948959746833e+00
3.451210121012101354e+03,1.657514334990595861e+00
3.451595159515951764e+03,1.657644471969317745e+00
3.451980198019802174e+03,1.657774608948039852e+00
3.452365236523652584e+03,1.657901355627905637e+00
3.452750275027502539e+03,1.658027918496387754e+00
3.453135313531352949e+03,1.658154514638762178e+00
3.453520352035203359e+03,1.658281172189051356e+00
3.453905390539053769e+03,1.658407829739340533e+00
3.454290429042904179e+03,1.658532999678876019e+00
3.454675467546754589e+03,1.658657685017938421e+00
3.455060506050604999e+03,1.658781900388889063e+00
3.455445544554455410e+03,1.658903595021784527e+00
3.455830583058305820e+03,1.659025289654679769e+00
3.456215621562156230e+03,1.659147035327179109e+00
3.456600660066006640e+03,1.659268821102224400e+00
3.456985698569857050e+03,1.659390606877269692e+00
3.457370737073707460e+03,1.659508929072613714e+00
3.457755775577557870e+03,1.659627117658058149e+00
3.458140814081408280e+03,1.659744621807579312e+00
3.458525852585258690e+03,1.659860938888546356e+00
3.458910891089109100e+03,1.659977255969513177e+00
3.459295929592959510e+03,1.660093640079634447e+00
3.459680968096809465e+03,1.660210044373255922e+00
3.460066006600659875e+03,1.660325553172721458e+00
3.460451045104510285e+03,1.660436733750433103e+00
3.460836083608360696e+03,1.660547914328144969e+00
3.461221122112211106e+03,1.660658821723109080e+00
3.461606160616061516e+03,1.660769526609469304e+00
3.461991199119911926e+03,1.660880231495829529e+00
3.462376237623762336e+03,1.660990050558418973e+00
3.462761276127612746e+03,1.661099848899984632e+00
3.463146314631463156e+03,1.661207647062196813e+00
3.463531353135313566e+03,1.661312181773884733e+00
3.463916391639163976e+03,1.661416716485572875e+00
3.464301430143014386e+03,1.661521312671602413e+00
3.464686468646864796e+03,1.661625925908909451e+00
3.465071507150715206e+03,1.661730029092504779e+00
3.465456545654565616e+03,1.661831895886748844e+00
3.465841584158416026e+03,1.661933762680992910e+00
3.466226622662266436e+03,1.662033260616213148e+00
3.466611661166116392e+03,1.662131102649979653e+00
3.466996699669966802e+03,1.662228944683746379e+00
3.467381738173817212e+03,1.662326859667862422e+00
3.467766776677667622e+03,1.662424775282673073e+00
3.468151815181518032e+03,1.662520693152994777e+00
3.468536853685368442e+03,1.662613542024536262e+00
3.468921892189218852e+03,1.662706390896077746e+00
3.469306930693069262e+03,1.662797180645687600e+00
3.469691969196919672e+03,1.662887446389357704e+00
3.470077007700770082e+03,1.662977725725035993e+00
3.470462046204620492e+03,1.663068059428746359e+00
3.470847084708470902e+03,1.663158393132456725e+00
3.471232123212321312e+03,1.663244139442397351e+00
3.471617161716171722e+03,1.663326863725162585e+00
3.472002200220022132e+03,1.663409584083523018e+00
3.472387238723872542e+03,1.663491621595442060e+00
3.472772277227722952e+03,1.663573659107361102e+00
3.473157315731573362e+03,1.663655151107568786e+00
3.473542354235423772e+03,1.663735853450963642e+00
3.473927392739273728e+03,1.663816555794358498e+00
3.474312431243124138e+03,1.663891477730133461e+00
3.474697469746974548e+03,1.663965056331743630e+00
3.475082508250824958e+03,1.664038646826413670e+00
3.475467546754675368e+03,1.664112280928971455e+00
3.475852585258525778e+03,1.664185915031529017e+00
3.476237623762376188e+03,1.664257305634011086e+00
3.476622662266226598e+03,1.664327304435520460e+00
3.477007700770077008e+03,1.664397200006132005e+00
3.477392739273927418e+03,1.664462037262752547e+00
3.477777777777777828e+03,1.664526874519372868e+00
3.478162816281628238e+03,1.664591732480211528e+00
3.478547854785478648e+03,1.664656618699510426e+00
3.478932893289329058e+03,1.664721504918809103e+00
3.479317931793179469e+03,1.664781751890410222e+00
3.479702970297029879e+03,1.664841019643638953e+00
3.480088008800880289e+03,1.664899647778419034e+00
3.480473047304730244e+03,1.664956117200934838e+00
3.480858085808580654e+03,1.665012586623450863e+00
3.481243124312431064e+03,1.665069083002890915e+00
3.481628162816281474e+03,1.665125595117368240e+00
3.482013201320131884e+03,1.665181860464933550e+00
3.482398239823982294e+03,1.665231175211147940e+00
3.482783278327832704e+03,1.665280489957362331e+00
3.483168316831683114e+03,1.665329536243129072e+00
3.483553355335533524e+03,1.665378236864136774e+00
3.483938393839383934e+03,1.665426937485144254e+00
3.484323432343234344e+03,1.665474710471925190e+00
3.484708470847084754e+03,1.665522306766472393e+00
3.485093509350935165e+03,1.665568550361751887e+00
3.485478547854785575e+03,1.665610576718138613e+00
3.485863586358635985e+03,1.665652603074525118e+00
3.486248624862486395e+03,1.665694649985865583e+00
3.486633663366336805e+03,1.665736708175145520e+00
3.487018701870187215e+03,1.665778659015561658e+00
3.487403740374037625e+03,1.665818507081175071e+00
3.487788778877887580e+03,1.665858355146788705e+00
3.488173817381737990e+03,1.665896822405046329e+00
3.488558855885588400e+03,1.665933611720188168e+00
3.488943894389438810e+03,1.665970401035329784e+00
3.489328932893289220e+03,1.666007214183154561e+00
3.489713971397139630e+03,1.666044031396085812e+00
3.490099009900990040e+03,1.666080150131777682e+00
3.490484048404840451e+03,1.666114251044332750e+00
3.490869086908690861e+03,1.666148351956887819e+00
3.491254125412541271e+03,1.666181587035591605e+00
3.491639163916391681e+03,1.666214376078675174e+00
3.492024202420242091e+03,1.666247166686439352e+00
3.492409240924092501e+03,1.666279980622171752e+00
3.492794279427942911e+03,1.666312794557904153e+00
3.493179317931793321e+03,1.666344306828283495e+00
3.493564356435643731e+03,1.666374325777061793e+00
3.493949394939494141e+03,1.666404344725840092e+00
3.494334433443344096e+03,1.666434181456992070e+00
3.494719471947194506e+03,1.666463990615740132e+00
3.495104510451044916e+03,1.666493684902104588e+00
3.495489548954895326e+03,1.666523070846807730e+00
3.495874587458745737e+03,1.666552456791511094e+00
3.496259625962596147e+03,1.666580442814236784e+00
3.496644664466446557e+03,1.666607752603465054e+00
3.497029702970296967e+03,1.666635063995131949e+00
3.497414741474147377e+03,1.666662394556716498e+00
3.497799779977997787e+03,1.666689725118301046e+00
3.498184818481848197e+03,1.666716685550436061e+00
3.498569856985698607e+03,1.666743245009001173e+00
3.498954895489549017e+03,1.666769804467566285e+00
3.499339933993399427e+03,1.666795442307137609e+00
3.499724972497249837e+03,1.666820957860693397e+00
3.500110011001100247e+03,1.666846478965618994e+00
3.500495049504950657e+03,1.666872013948968556e+00
3.500880088008801067e+03,1.666897548932318340e+00
3.501265126512651477e+03,1.666922027005428797e+00
3.501650165016501433e+03,1.666946027056895652e+00
3.502035203520351843e+03,1.666969961329599625e+00
3.502420242024202253e+03,1.666993241925847746e+00
3.502805280528052663e+03,1.667016522522095645e+00
3.503190319031903073e+03,1.667039811891011913e+00
3.503575357535753483e+03,1.667063110235432521e+00
3.503960396039603893e+03,1.667086408579853130e+00
3.504345434543454303e+03,1.667107803832283519e+00
3.504730473047304713e+03,1.667128980895823176e+00
3.505115511551155123e+03,1.667150114255220750e+00
3.505500550055005533e+03,1.667171145638286056e+00
3.505885588558855943e+03,1.667192177021351362e+00
3.506270627062706353e+03,1.667213053040794257e+00
3.506655665566556763e+03,1.667233863378055236e+00
3.507040704070407173e+03,1.667254562054089506e+00
3.507425742574257583e+03,1.667274316136504675e+00
3.507810781078107993e+03,1.667294070218919844e+00
3.508195819581958403e+03,1.667313831974894800e+00
3.508580858085808359e+03,1.667333601145770006e+00
3.508965896589658769e+03,1.667353370316645433e+00
3.509350935093509179e+03,1.667373120101590001e+00
3.509735973597359589e+03,1.667392868002635309e+00
3.510121012101209999e+03,1.667412605648528112e+00
3.510506050605060409e+03,1.667432320919542743e+00
3.510891089108910819e+03,1.667452036190557152e+00
3.511276127612761229e+03,1.667471762273280866e+00
3.511661166116611639e+03,1.667491492620384097e+00
3.512046204620462049e+03,1.667511226883383380e+00
3.512431243124312459e+03,1.667530989862954227e+00
3.512816281628162869e+03,1.667550752842525075e+00
3.513201320132013279e+03,1.667570527966504734e+00
3.513586358635863689e+03,1.667590314173087007e+00
3.513971397139714099e+03,1.667610100379669280e+00
3.514356435643564510e+03,1.667629900608700755e+00
3.514741474147414920e+03,1.667649701962990560e+00
3.515126512651265330e+03,1.667669713239422480e+00
3.515511551155115285e+03,1.667690153487188187e+00
3.515896589658965695e+03,1.667710593734953672e+00
3.516281628162816105e+03,1.667641223295667219e+00
3.516666666666666515e+03,1.667538875494728456e+00
3.517051705170516925e+03,1.667436527693789472e+00
3.517436743674367335e+03,1.667334179892850710e+00
3.517821782178217745e+03,1.667231832091911947e+00
3.518206820682068155e+03,1.667196278016259692e+00
3.518591859185918565e+03,1.667218280235800876e+00
3.518976897689768975e+03,1.667240282455342060e+00
3.519361936193619385e+03,1.667262300532728503e+00
3.519746974697469796e+03,1.667284319622317712e+00
3.520132013201320206e+03,1.667306685441452219e+00
3.520517051705170616e+03,1.667329715825548009e+00
3.520902090209021026e+03,1.667352746209643577e+00
3.521287128712871436e+03,1.667376740716704830e+00
3.521672167216721846e+03,1.667401063986003296e+00
3.522057205720572256e+03,1.667425390029304122e+00
3.522442244224422211e+03,1.667449731969773419e+00
3.522827282728272621e+03,1.667474073910242938e+00
3.523212321232123031e+03,1.667499595690032477e+00
3.523597359735973441e+03,1.667526077235486515e+00
3.523982398239823851e+03,1.667552558780940775e+00
3.524367436743674261e+03,1.667579970692070646e+00
3.524752475247524671e+03,1.667607427171616363e+00
3.525137513751375081e+03,1.667634891187090851e+00
3.525522552255225492e+03,1.667662368767236947e+00
3.525907590759075902e+03,1.667689846347383043e+00
3.526292629262926312e+03,1.667720078337226797e+00
3.526677667766776722e+03,1.667751180140659040e+00
3.527062706270627132e+03,1.667782322537794792e+00
3.527447744774477542e+03,1.667813673600810009e+00
3.527832783278327952e+03,1.667845024663825226e+00
3.528217821782178362e+03,1.667876837420949832e+00
3.528602860286028772e+03,1.667909004609916090e+00
3.528987898789879182e+03,1.667941171798882349e+00
3.529372937293729592e+03,1.667976584520816763e+00
3.529757975797579547e+03,1.668012102555030296e+00
3.530143014301429957e+03,1.668047630747271581e+00
3.530528052805280367e+03,1.668083176130020995e+00
3.530913091309130778e+03,1.668118721512770408e+00
3.531298129812981188e+03,1.668155715554567875e+00
3.531683168316831598e+03,1.668193131899187387e+00
3.532068206820682008e+03,1.668230962718023624e+00
3.532453245324532418e+03,1.668270718836447841e+00
3.532838283828382828e+03,1.668310474954872058e+00
3.533223322332233238e+03,1.668350248848681661e+00
3.533608360836083648e+03,1.668390035614321976e+00
3.533993399339934058e+03,1.668429822379962069e+00
3.534378437843784468e+03,1.668472017343765934e+00
3.534763476347634878e+03,1.668514254311026290e+00
3.535148514851485288e+03,1.668556913425953692e+00
3.535533553355335698e+03,1.668600244850128922e+00
3.535918591859186108e+03,1.668643576274304152e+00
3.536303630363036063e+03,1.668686934069900429e+00
3.536688668866886474e+03,1.668730298936095036e+00
3.537073707370736884e+03,1.668774227606487193e+00
3.537458745874587294e+03,1.668820537718488595e+00
3.537843784378437704e+03,1.668866847830490219e+00
3.538228822882288114e+03,1.668913276983549299e+00
3.538613861386138524e+03,1.668959787405023043e+00
3.538998899889988934e+03,1.669006297826496787e+00
3.539383938393839344e+03,1.669053167048774711e+00
3.539768976897689754e+03,1.669100037299135142e+00
3.540154015401540164e+03,1.669147447828380981e+00
3.540539053905390574e+03,1.669195668775954600e+00
3.540924092409240984e+03,1.669243889723527996e+00
3.541309130913091394e+03,1.669292140607689490e+00
3.541694169416941804e+03,1.669340398842828144e+00
3.542079207920792214e+03,1.669388620063884998e+00
3.542464246424642624e+03,1.669436698369459737e+00
3.542849284928493034e+03,1.669484776675034476e+00
3.543234323432343444e+03,1.669532715449236759e+00
3.543619361936193400e+03,1.669580564477908258e+00
3.544004400440043810e+03,1.669628413929927557e+00
3.544389438943894220e+03,1.669676300001537994e+00
3.544774477447744630e+03,1.669724186073148431e+00
3.545159515951595040e+03,1.669771158733830640e+00
3.545544554455445450e+03,1.669816840020441395e+00
3.545929592959295860e+03,1.669862521307052372e+00
3.546314631463146270e+03,1.669907447738470996e+00
3.546699669966996680e+03,1.669952205251245436e+00
3.547084708470847090e+03,1.669996970395794644e+00
3.547469746974697500e+03,1.670041762598454493e+00
3.547854785478547910e+03,1.670086554801114342e+00
3.548239823982398320e+03,1.670127831941672136e+00
3.548624862486248730e+03,1.670166980696002890e+00
3.549009900990099140e+03,1.670206122811644711e+00
3.549394939493949551e+03,1.670245013394748401e+00
3.549779977997799961e+03,1.670283903977852091e+00
3.550165016501649916e+03,1.670321985496974637e+00
3.550550055005500326e+03,1.670358988264121880e+00
3.550935093509350736e+03,1.670395991031269345e+00
3.551320132013201146e+03,1.670426759220477564e+00
3.551705170517051556e+03,1.670456263354364701e+00
3.552090209020901966e+03,1.670485772856195483e+00
3.552475247524752376e+03,1.670515299902036732e+00
3.552860286028602786e+03,1.670544826947877981e+00
3.553245324532453196e+03,1.670570473146103296e+00
